# Send Buffer on DEVICE (D) and Receive Buffer on DEVICE (D)
# Size      Bandwidth (MB/s)        Validation
1                       0.14
2                       0.27
4                       0.55
8                       1.10
16                      2.23
32                      4.46
64                      8.92
128                    16.89
256                    34.20
512                    68.22
1024                  135.37
2048                  267.98
4096                  530.17
8192                 1026.18
16384                1961.17
32768                3123.82
65536                5050.03
131072              10095.62
262144              16009.47
524288              23537.05
1048576             31975.68
2097152             37975.62
4194304             41645.82
