

1 gpu 2 2
0 gpu 4 2
#Using RCCL
#Using RCCL
# Send Buffer on DEVICE (D) and Receive Buffer on DEVICE (D)
# Size      Bandwidth (MB/s)        Validation
1                       0.24
2                       0.49
4                       0.98
8                       1.94
16                      3.90
32                      7.78
64                     15.56
128                    30.97
256                    61.31
512                   120.99
1024                  237.31
2048                  428.25
4096                  736.01
8192                 1491.94
16384                2951.85
32768                4585.23
65536                6330.33
131072              13292.41
262144              26855.58
524288              35779.24
1048576             42342.65
2097152             49444.96
4194304             55870.16
