
0 gpu 4 1

0 gpu 4 1
#Using RCCL
#Using RCCL
# Send Buffer on DEVICE (D) and Receive Buffer on DEVICE (D)
# Size      Bandwidth (MB/s)        Validation
1                       0.10
2                       0.20
4                       0.40
8                       0.80
16                      1.61
32                      3.22
64                      6.43
128                    12.62
256                    25.44
512                    50.66
1024                  100.54
2048                  198.52
4096                  374.83
8192                  604.10
16384                 628.65
32768                2117.44
65536                3608.54
131072               6824.88
262144              11307.19
524288              16908.22
1048576             24034.94
2097152             28866.33
4194304             32089.88
