
0 gpu 4 1

0 gpu 4 1
#Using RCCL
#Using RCCL
# Send Buffer on DEVICE (D) and Receive Buffer on DEVICE (D)
# Size      Bandwidth (MB/s)        Validation
1                       0.10
2                       0.21
4                       0.42
8                       0.83
16                      1.68
32                      3.38
64                      6.73
128                    13.03
256                    26.24
512                    51.89
1024                   92.67
2048                  193.31
4096                  350.52
8192                    7.89
16384                  16.13
32768                2197.88
65536                3699.45
131072               7199.67
262144              11236.95
524288              15747.79
1048576             23085.94
2097152             28422.05
4194304             31773.80
