
0 gpu 4 2

1 gpu 2 2
#Using RCCL
#Using RCCL
# Send Buffer on DEVICE (D) and Receive Buffer on DEVICE (D)
# Size      Bandwidth (MB/s)        Validation
1                       0.24
2                       0.49
4                       0.97
8                       1.93
16                      3.87
32                      7.73
64                     15.44
128                    30.73
256                    60.78
512                   119.68
1024                  232.45
2048                  420.21
4096                  721.29
8192                 1500.96
16384                2907.88
32768                4545.03
65536                6272.58
131072              13221.16
262144              26421.93
524288              35601.90
1048576             41946.49
2097152             48928.87
4194304             55551.91
