
1 gpu 2 2

0 gpu 4 2
#Using RCCL
#Using RCCL
# Send Buffer on DEVICE (D) and Receive Buffer on DEVICE (D)
# Size      Bandwidth (MB/s)        Validation
1                       0.24
2                       0.49
4                       0.97
8                       1.93
16                      3.87
32                      7.74
64                     15.46
128                    30.83
256                    60.83
512                   119.96
1024                  233.10
2048                  421.61
4096                  725.11
8192                 1505.20
16384                2926.63
32768                4553.12
65536                6302.76
131072              13243.05
262144              26726.22
524288              35521.78
1048576             41758.06
2097152             49097.06
4194304             55564.51
