0 cxi 2 2 cxi2
0 gpu 4 2
1 cxi 1 2 cxi1
1 gpu 2 2
#Using RCCL
#Using RCCL
# Send Buffer on DEVICE (D) and Receive Buffer on DEVICE (D)
# Size      Bandwidth (MB/s)        Validation
1                       0.24
2                       0.49
4                       0.98
8                       1.96
16                      3.93
32                      7.85
64                     15.69
128                    31.21
256                    61.71
512                   121.88
1024                  236.41
2048                  426.33
4096                  735.49
8192                 1529.42
16384                2970.02
32768                4622.20
65536                6382.72
131072              13211.22
262144              26828.92
524288              35856.57
1048576             42335.61
2097152             49896.53
4194304             57903.89
