0 cxi 2 2 cxi2
0 gpu 4 2
1 cxi 1 2 cxi1
1 gpu 2 2
#Using RCCL
#Using RCCL
# Send Buffer on DEVICE (D) and Receive Buffer on DEVICE (D)
# Size      Bandwidth (MB/s)        Validation
1                       0.24
2                       0.49
4                       0.98
8                       1.95
16                      3.90
32                      7.80
64                     15.59
128                    30.99
256                    61.41
512                   121.18
1024                  234.20
2048                  426.12
4096                  732.55
8192                 1532.30
16384                2970.78
32768                4639.89
65536                6396.50
131072              13249.03
262144              26604.38
524288              35437.11
1048576             42629.85
2097152             50756.44
4194304             58527.02
