0 cxi 2 2 cxi2
0 gpu 4 2
1 cxi 1 2 cxi1
1 gpu 2 2
#Using RCCL
#Using RCCL
# Send Buffer on DEVICE (D) and Receive Buffer on DEVICE (D)
# Size      Bandwidth (MB/s)        Validation
1                       0.24
2                       0.49
4                       0.99
8                       1.96
16                      3.94
32                      7.88
64                     15.74
128                    31.35
256                    62.00
512                   122.34
1024                  235.98
2048                  428.31
4096                  737.42
8192                 1537.76
16384                2978.08
32768                4648.82
65536                6420.60
131072              13252.48
262144              26891.14
524288              34977.23
1048576             42976.06
2097152             49924.72
4194304             58489.81
